#"Step","Potential Energy (kJ/mole)","Temperature (K)","Speed (ns/day)"
100,-320427.3515625,57.37617915863626,0
200,-313869.6728515625,103.98069971629937,269
300,-308235.138671875,142.4360267441344,282
400,-303903.763671875,173.3471690353206,288
500,-299865.7880859375,195.55295515884418,288
600,-297067.5498046875,214.54795408524572,286
700,-294044.19921875,226.25769911663443,287
800,-292459.5517578125,242.01196974433677,286
900,-289496.14453125,247.197619241133,286
1000,-288304.8837890625,261.531360904382,287
1100,-287200.68359375,272.76863552220505,286
1200,-285221.791015625,276.8445045747135,286
1300,-284464.3203125,284.6448549590773,286
1400,-283595.4033203125,286.6241843682947,286
1500,-283081.115234375,292.96077679764596,284
1600,-282100.193359375,291.24330210779027,284
1700,-281571.83203125,293.5858011243659,284
1800,-281319.421875,297.34966737386725,283
1900,-280707.34375,298.7569753627025,283
2000,-279857.6611328125,300.8896029106322,283
2100,-280023.7529296875,301.1383868883181,282
2200,-279817.142578125,303.9661327914702,281
2300,-279662.2470703125,305.2719041145656,281
2400,-279048.158203125,307.2615707428578,281
2500,-278616.169921875,306.2833411915559,280
2600,-278605.45703125,309.4813551697534,280
2700,-277851.423828125,306.73220377812083,280
2800,-278371.1171875,309.2147603068976,280
2900,-278240.47265625,311.4556811808338,280
3000,-277792.923828125,309.40737452369757,280
3100,-276837.8896484375,305.5911645568002,279
3200,-277144.8857421875,309.09192085522903,279
3300,-277378.79296875,309.7593086225018,279
3400,-276792.08984375,310.0536699551002,279
3500,-277257.552734375,313.6964050874419,279
3600,-276973.0283203125,311.5854374381899,278
3700,-276998.9833984375,310.9264306548283,278
3800,-277274.146484375,310.4169115551897,278
3900,-277551.0703125,314.3823923045554,278
4000,-276975.927734375,308.9812194709944,278
4100,-277146.8779296875,310.65596795498124,277
4200,-277358.5107421875,308.73659746654624,277
4300,-277011.7626953125,306.6648670679077,277
4400,-276943.8974609375,308.0994497587864,277
4500,-277486.4501953125,308.5673004085629,277
4600,-277175.548828125,309.5673587996613,277
4700,-277694.5537109375,314.75860421130886,277
4800,-276952.736328125,308.75329605955284,277
4900,-276522.2451171875,307.75592005692533,277
5000,-277082.453125,307.5961262538142,277
5100,-276529.5908203125,306.94908295204164,277
5200,-276964.6435546875,313.7985122634997,277
5300,-276572.2607421875,311.5814570855379,277
5400,-276911.4912109375,315.4290794415264,277
5500,-276341.705078125,311.59966586614473,277
5600,-275989.998046875,309.9344959035445,276
5700,-276411.69921875,310.3811645905808,276
5800,-276575.5595703125,312.6206680199513,276
5900,-276211.185546875,310.6023436533756,276
6000,-276178.7763671875,310.4863221608771,276
6100,-276665.7578125,315.5885301276141,276
6200,-276102.267578125,310.909441508661,276
6300,-276235.3662109375,309.4376786620546,276
6400,-276732.9716796875,312.2185254032883,276
6500,-276738.0673828125,311.4184968436698,276
6600,-277114.49609375,316.40888273409473,276
6700,-276307.6484375,311.7504031515642,276
6800,-276343.74609375,310.94567541859846,276
6900,-276578.2333984375,311.9660460327871,276
7000,-276673.7734375,310.10928107986587,276
7100,-277308.2109375,313.3397666801488,275
7200,-277319.3056640625,310.4026110942061,275
7300,-278011.8994140625,314.1806814553916,275
7400,-277120.759765625,308.33219778540354,275
7500,-277722.544921875,312.059641577992,275
7600,-277543.607421875,312.76521090206637,275
7700,-277084.33203125,313.20440555710616,275
7800,-276877.173828125,310.16762357058934,275
7900,-276729.3037109375,309.86002047897085,275
8000,-276880.7001953125,308.053675102431,275
8100,-277538.556640625,311.4548798897191,275
8200,-276877.3935546875,308.77253857058963,275
8300,-277233.88671875,311.033320316614,275
8400,-276996.681640625,311.422862571104,275
8500,-276975.7451171875,312.81006552346986,275
8600,-276608.0107421875,310.92544622511065,275
8700,-276727.443359375,313.73775945870227,275
8800,-276802.9169921875,314.22223946159295,275
8900,-276335.0498046875,311.57781149705175,275
9000,-276677.90234375,308.2044608601565,275
9100,-277076.580078125,311.7459889389203,275
9200,-276938.173828125,313.2233661664901,275
9300,-276725.66796875,312.6928703556501,275
9400,-276923.541015625,313.17651690911237,275
9500,-276129.509765625,310.65170446703263,275
9600,-276239.5419921875,312.42945664054787,274
9700,-275885.98828125,311.1276079627924,274
9800,-275841.0400390625,310.23380496053807,274
9900,-275402.6953125,307.9600219019068,274
10000,-276050.646484375,310.27243199095454,274
10100,-276341.8017578125,311.6910407442808,274
10200,-276695.53125,311.12213370611823,274
10300,-277084.1845703125,310.11904985523483,274
10400,-276956.546875,312.56771633289327,274
10500,-276771.1728515625,312.57183179165276,274
10600,-276835.2666015625,310.8229261998692,274
10700,-277150.7099609375,314.0863287367694,274
10800,-277349.9765625,311.37893598030485,274
10900,-277392.251953125,309.7268118677698,274
11000,-277710.5185546875,312.63403851303497,274
11100,-277184.73828125,309.1206162351091,274
11200,-276817.2001953125,308.3107786086621,274
11300,-277281.4423828125,311.8721378096953,274
11400,-278275.33984375,317.4715239870356,274
11500,-278058.46484375,313.8502620700204,274
11600,-277193.16796875,311.3684509458953,274
11700,-276553.0908203125,307.5989367328579,274
11800,-276915.443359375,309.9656319239905,274
11900,-276885.486328125,307.23162157188966,274
12000,-277149.7451171875,308.19416724981016,274
12100,-277381.076171875,314.49892801672223,274
12200,-277353.62109375,313.46059563990246,274
12300,-276939.84375,309.74086199659854,274
12400,-276547.115234375,310.96253567932814,274
12500,-276815.5302734375,314.4128021173375,274
12600,-277245.76171875,315.3028346865282,274
12700,-277165.9892578125,311.60618552709104,274
12800,-277084.99609375,308.2237844375868,274
12900,-277376.6728515625,311.0174750568376,274
13000,-277238.3076171875,309.12729227401644,274
13100,-277861.5498046875,312.7216458969346,273
13200,-277041.77734375,306.6011129133126,273
13300,-277824.79296875,310.55676371053806,273
13400,-278106.86328125,310.8766534813319,273
13500,-277553.2939453125,309.807604465663,273
13600,-277372.42578125,308.35330775435403,273
13700,-277155.908203125,308.5166267626325,273
13800,-277647.9140625,311.0218837130008,273
13900,-277136.7626953125,308.8929460866961,273
14000,-277285.2939453125,307.06980114979746,273
14100,-277682.263671875,311.05172687807544,273
14200,-277134.5888671875,308.7489175147827,273
14300,-276518.3056640625,307.68691114453856,273
14400,-276956.373046875,310.4542684312108,273
14500,-277006.5439453125,308.02488348052395,273
14600,-277146.802734375,309.04784597679554,273
14700,-277283.1826171875,308.87084441164654,273
14800,-277271.9716796875,311.22287921101,273
14900,-276859.7666015625,306.6491046256279,273
15000,-277430.03125,310.5000544808647,273
15100,-277732.7451171875,312.1091088114948,273
15200,-277544.9404296875,310.9388376893277,273
15300,-277071.8701171875,308.8008984445746,273
15400,-277097.638671875,309.0661916727248,273
15500,-277815.1962890625,312.4167413662851,273
15600,-277466.935546875,313.9160981348314,273
15700,-277314.4013671875,314.4428132145862,273
15800,-276651.7490234375,306.3224773551436,273
15900,-276771.6357421875,306.0355763175412,273
16000,-277602.51171875,309.212230273032,273
16100,-277722.9736328125,307.0234583458098,273
16200,-278152.2958984375,308.3413491846629,273
16300,-278272.595703125,311.57078751336167,273
16400,-277265.9990234375,306.3637615355148,273
16500,-277242.6669921875,306.60491085711215,273
16600,-277614.4892578125,310.84164013406223,273
16700,-277564.2685546875,311.7986505941615,273
16800,-277796.443359375,314.3009342531108,273
16900,-277249.349609375,310.2577228171582,273
17000,-277270.9033203125,311.29863289507006,273
17100,-277786.4189453125,312.85957927592284,273
17200,-277802.8876953125,311.11633524071664,273
17300,-277514.921875,310.30079095328466,273
17400,-278006.36328125,313.8264230758973,273
17500,-277967.5625,312.3696455737916,273
17600,-277318.6572265625,311.26367237725253,273
17700,-277425.109375,310.36749467817805,273
17800,-277566.6767578125,311.6293996552317,273
17900,-277914.65625,312.4397043264959,273
18000,-277355.609375,308.21426342284275,273
18100,-277550.712890625,311.65247985220003,273
18200,-277026.8125,306.3761180182871,273
18300,-277359.533203125,312.04447154395797,273
18400,-277114.6181640625,309.16455142244683,273
18500,-277448.90625,312.17224990220143,273
18600,-277763.669921875,308.0720196971483,273
18700,-277438.5087890625,306.9908439803252,273
18800,-277684.41015625,305.239417714996,273
18900,-277305.240234375,305.18708883350325,273
19000,-277626.9736328125,308.65232827007617,273
19100,-277852.9755859375,310.0859515736449,273
19200,-278037.6171875,308.4707174207425,273
19300,-277749.63671875,308.68724851848515,273
19400,-277922.2724609375,310.2973286667083,273
19500,-277990.07421875,309.7440686664908,273
19600,-277524.09375,309.9519207679898,273
19700,-277838.9453125,312.149206655746,273
19800,-277657.298828125,308.70198098434014,273
19900,-277791.4638671875,311.52809422017083,273
20000,-278029.36328125,315.28322477860206,273
20100,-277339.876953125,309.25493190607136,272
20200,-278474.2431640625,315.18999161453064,272
20300,-278116.8076171875,313.12707482685994,272
20400,-277821.9755859375,311.0008442254913,272
20500,-277797.798828125,308.32825313903885,272
20600,-278444.2783203125,313.1755916320353,272
20700,-277229.1416015625,307.2253402660926,272
20800,-277464.7509765625,310.40894207956956,272
20900,-277302.0244140625,306.9195844092824,272
21000,-278146.181640625,310.1861599350152,272
21100,-278098.0791015625,306.0652913438496,272
21200,-278659.8076171875,308.54355224747263,272
21300,-278276.181640625,306.01716224248787,272
21400,-278351.1669921875,309.5565891540651,272
21500,-277904.482421875,306.71569610403776,272
21600,-278130.4853515625,306.90261736055567,272
21700,-278685.5751953125,311.7871114386936,272
21800,-278244.001953125,310.2909652189098,272
21900,-278151.0263671875,308.79506575002665,272
22000,-277766.6708984375,305.6446175890691,272
22100,-278155.63671875,306.74022893409904,272
22200,-278535.10546875,308.8091746120623,272
22300,-278524.927734375,308.0610024006932,272
22400,-277617.123046875,306.27401747122275,272
22500,-277831.099609375,310.7035232112044,272
22600,-277621.2939453125,307.1091859927434,272
22700,-277855.017578125,309.455678724776,272
22800,-277687.2685546875,310.4274110189848,272
22900,-277856.4501953125,315.47319700919564,272
23000,-277226.978515625,310.936550505792,272
23100,-276857.7978515625,310.1941424562694,272
23200,-277781.42578125,312.61189782994876,272
23300,-277091.060546875,306.6773332109351,272
23400,-277691.146484375,309.1926145351221,272
23500,-277989.6806640625,311.4169789024492,272
23600,-277939.2744140625,308.0405831878403,272
23700,-278375.490234375,311.31101124651025,272
23800,-278512.921875,309.4967350438465,272
23900,-277684.7392578125,307.63557683346426,272
24000,-278265.904296875,312.953323039742,272
24100,-277490.7685546875,306.148442472985,272
24200,-277683.9775390625,308.13186236715393,272
24300,-278090.26171875,311.94054249702214,272
24400,-278200.619140625,311.36274814791966,272
24500,-278105.8310546875,310.16608333802003,272
24600,-278218.482421875,312.2092106341295,272
24700,-278419.2626953125,309.86881213398226,272
24800,-278125.2822265625,307.19327441205616,272
24900,-278227.8662109375,307.3381472412189,272
25000,-277889.82421875,306.416408139561,272
25100,-277961.0107421875,306.5797370035728,272
25200,-278282.388671875,309.1252857097779,272
25300,-277924.3603515625,307.7410027289514,272
25400,-278505.6767578125,312.7114694330911,272
25500,-278143.3994140625,308.88292161120654,272
25600,-278363.3671875,312.0577699600527,272
25700,-277985.2216796875,306.14476396271266,272
25800,-278536.1904296875,309.97647297389705,272
25900,-278341.23046875,307.3577174670407,272
26000,-278704.5068359375,307.4905756679101,272
26100,-278668.333984375,308.03287239671386,272
26200,-278795.875,309.0128739688207,272
26300,-278419.669921875,307.2092857099836,272
26400,-278767.244140625,309.9991735356219,272
26500,-278808.2314453125,310.6102131906591,272
26600,-278327.7138671875,311.37758375764656,272
26700,-278330.90234375,308.63520778128265,272
26800,-277799.8017578125,308.6040285162247,272
26900,-278645.1328125,313.25702951225406,272
27000,-278027.5419921875,310.29671056291085,272
27100,-278378.3974609375,310.3453410639018,272
27200,-277953.103515625,304.88533352094646,271
27300,-277735.470703125,306.49436528853056,271
27400,-278084.521484375,308.91016263309984,271
27500,-278383.87890625,308.09146896695967,271
27600,-278660.0654296875,310.3527238765922,271
27700,-277979.158203125,306.7715624483425,271
27800,-278333.865234375,305.94689388856676,271
27900,-278104.8984375,309.0530980278003,271
28000,-277677.3564453125,307.39465059442955,271
28100,-277627.6005859375,307.97216216542273,271
28200,-277102.3203125,307.1164030754685,271
28300,-277630.4619140625,310.3042995367788,271
28400,-277760.4794921875,311.4293785544783,271
28500,-277305.953125,305.95816515123937,271
28600,-277956.13671875,315.3138657961122,271
28700,-277201.615234375,308.1413876793235,271
28800,-277115.1337890625,308.445443016089,271
28900,-277892.89453125,310.80484932564445,271
29000,-277533.6083984375,309.51332354722103,271
29100,-277600.0859375,308.822744606065,271
29200,-277126.4248046875,305.99371517237597,271
29300,-277831.6953125,311.03182319179336,271
29400,-277787.4365234375,309.24585129568874,271
29500,-278218.5302734375,312.4311800519777,271
29600,-278589.638671875,312.9369709873463,271
29700,-278485.775390625,312.44783818845093,271
29800,-278070.56640625,307.5270522456878,271
29900,-277866.9951171875,307.5413793039312,271
30000,-277644.8583984375,306.56122428246226,271
30100,-278332.9873046875,308.44360082650763,271
30200,-278555.3369140625,308.92817939807486,271
30300,-278115.3125,308.71011107101924,271
30400,-277926.80859375,305.4169083989291,271
30500,-278397.0107421875,309.43988627578545,271
30600,-278036.2822265625,312.2578934294458,271
30700,-277236.388671875,311.48463503612015,271
30800,-277566.58984375,309.74955786789496,271
30900,-277817.576171875,310.13238780041513,271
31000,-277521.654296875,306.26524178298087,271
31100,-277917.576171875,306.28789304723045,271
31200,-278056.0322265625,311.19764332196434,271
31300,-277770.3427734375,308.02435210161343,271
31400,-278279.623046875,311.06632287078804,271
31500,-278271.2939453125,313.25240921322813,271
31600,-277701.623046875,309.37093767850456,271
31700,-277839.0341796875,308.1765289675144,271
31800,-278353.490234375,310.4503697769154,271
31900,-278078.275390625,305.405648690126,271
32000,-278347.20703125,308.95942471504225,271
32100,-277475.11328125,307.2526493389048,271
32200,-277637.681640625,309.77112936520655,271
32300,-278087.0068359375,310.04054141654717,271
32400,-277751.1318359375,307.19074182177553,271
32500,-277981.0458984375,311.1541386349077,271
32600,-277760.408203125,308.32249464566206,271
32700,-278270.9052734375,312.7237989739112,271
32800,-277221.2041015625,306.09777643464696,271
32900,-276904.140625,306.70961151895233,271
33000,-277429.9345703125,310.3056826775709,271
33100,-277222.72265625,312.48159250728963,271
33200,-276485.080078125,308.4592964719708,271
33300,-276673.158203125,311.75336058825116,271
33400,-276816.732421875,311.1572752537631,271
33500,-277118.888671875,311.1655772718373,271
33600,-276922.6083984375,311.54979214788506,271
33700,-276916.3603515625,311.16020954349165,271
33800,-277322.201171875,310.10114456117356,271
33900,-277840.2255859375,311.0983614983124,271
34000,-277464.958984375,308.44004382077674,271
34100,-277162.1298828125,307.17943008450806,271
34200,-277557.716796875,312.15735895626807,271
34300,-277053.1181640625,312.9702317098362,271
34400,-277079.7373046875,312.52953528438854,271
34500,-276600.4404296875,309.3941396250135,271
34600,-277184.77734375,311.37962568587506,271
34700,-277439.3447265625,311.41196330072415,271
34800,-277542.0751953125,306.3395008722454,271
34900,-277929.822265625,308.99384457814597,271
35000,-278293.646484375,308.60551364140923,271
35100,-278185.1357421875,307.6525045932851,271
35200,-277967.6259765625,305.3187710335904,271
35300,-277858.0869140625,307.19051672012364,271
35400,-278375.6748046875,311.7665634707636,271
35500,-277849.91015625,308.1283877806873,271
35600,-278015.0390625,307.28722563930904,271
35700,-278599.791015625,310.9155222545539,271
35800,-278606.6640625,313.5211786895346,271
35900,-278096.263671875,309.39466640581963,271
36000,-278256.9384765625,310.3713700945422,271
36100,-278747.1171875,311.5424582631812,271
36200,-278244.98828125,310.6759977459262,271
36300,-277723.1826171875,305.8091431243152,271
36400,-278315.330078125,309.66688477790876,271
36500,-277689.177734375,308.82981152996257,271
36600,-277586.21484375,308.0366787668294,271
36700,-277543.201171875,307.30284798007807,271
36800,-277246.55859375,310.6359700308965,271
36900,-277547.6220703125,312.6156371133554,271
37000,-277346.794921875,308.5601052819169,271
37100,-277794.36328125,310.0012211817223,271
37200,-277662.4873046875,305.2307855706611,271
37300,-277856.9248046875,311.45085632914817,271
37400,-277485.0654296875,305.56758615949167,271
37500,-278074.861328125,310.36707251034187,271
37600,-277500.9599609375,306.9804474679828,271
37700,-278129.18359375,312.27198556897406,271
37800,-277600.86328125,310.47627246612046,271
37900,-277914.8798828125,310.9428128119045,271
38000,-277348.4873046875,311.1863916145328,271
38100,-277345.328125,312.40640167103135,271
38200,-276909.2548828125,312.4100702786301,270
38300,-276757.921875,311.3894269412107,271
38400,-276885.4072265625,309.59652544987165,271
38500,-277523.8623046875,315.17828818341434,271
38600,-277298.83203125,313.4441222921837,271
38700,-277627.017578125,316.71639707151985,271
38800,-277188.28125,311.07404659841876,271
38900,-277834.318359375,315.52330133995565,271
39000,-277450.09375,311.34986159668586,271
39100,-277699.2216796875,310.68280734318233,271
39200,-277537.1611328125,308.7181528394265,271
39300,-277597.962890625,309.51666988027563,271
39400,-277854.04296875,313.62448196869383,271
39500,-277376.783203125,309.0311369407554,271
39600,-277539.0537109375,311.7941866856839,271
39700,-277591.6640625,313.5425690865744,271
39800,-277499.955078125,310.4430454845543,271
39900,-277683.4658203125,309.4485467520393,271
40000,-278053.6064453125,309.9653053375903,271
40100,-277813.916015625,308.6666044199482,271
40200,-278536.0380859375,309.62952007467817,270
40300,-278648.25,311.4165166898813,271
40400,-278380.15625,309.75932764418036,270
40500,-278477.1279296875,310.20447990794264,270
40600,-278480.7431640625,308.088879773122,270
40700,-278427.341796875,308.33599380621325,270
40800,-279044.5771484375,308.7417227672682,270
40900,-277947.685546875,304.4004710121135,270
41000,-278166.0322265625,304.4487939567972,270
41100,-278255.1328125,308.8951287916685,270
41200,-278115.7138671875,309.52051935289836,270
41300,-278577.36328125,313.8374993090951,270
41400,-277609.029296875,308.2648078022107,270
41500,-277610.6708984375,308.016213543098,270
41600,-277606.5625,309.3548534807344,270
41700,-277714.8984375,312.7193655564871,270
41800,-277832.8544921875,312.2575079442279,270
41900,-277875.220703125,309.9230261740021,270
42000,-277772.9248046875,310.97256587246744,270
42100,-277294.07421875,309.80268505202343,270
42200,-277526.9482421875,309.4246810645518,270
42300,-277778.9501953125,311.2277149473905,270
42400,-277050.6904296875,306.7950755542944,270
42500,-278299.6474609375,309.29115327657166,270
42600,-278168.263671875,309.5214994896142,270
42700,-278233.576171875,309.18245673070226,270
42800,-277958.9541015625,309.4425830640908,270
42900,-277826.9296875,312.0207456700551,270
43000,-277327.9892578125,308.2164706853571,270
43100,-277572.3935546875,310.8445044448582,270
43200,-276873.248046875,306.5030649103105,270
